D:\Butterfly_SAXS_data_downloaded\Frames\Pilatus2_1m\long\gryneus_1_grid_0088.ti
Q (Inverse Nanometres)
Intensity
        777
 5.0313136E-04  0.0000000E+00
 1.5093940E-03  0.0000000E+00
 2.5156569E-03  0.0000000E+00
 3.5219195E-03  0.0000000E+00
 4.5281821E-03  0.0000000E+00
 5.5344449E-03  0.0000000E+00
 6.5407078E-03  0.0000000E+00
 7.5469706E-03  0.0000000E+00
 8.5532330E-03  0.0000000E+00
 9.5594963E-03  0.0000000E+00
 1.0565759E-02  1.7831033E+06
 1.1572021E-02  1.9714581E+06
 1.2578284E-02  1.8255411E+06
 1.3584547E-02  1.9531844E+06
 1.4590809E-02  1.9150346E+06
 1.5597072E-02  1.4124070E+06
 1.6603336E-02  1.1270085E+06
 1.7609598E-02  9.8876475E+05
 1.8615860E-02  9.2577231E+05
 1.9622123E-02  8.4873944E+05
 2.0628385E-02  7.5256919E+05
 2.1634649E-02  6.5974744E+05
 2.2640912E-02  5.7033850E+05
 2.3647174E-02  5.0897963E+05
 2.4653437E-02  5.3997106E+05
 2.5659699E-02  6.8054413E+05
 2.6665961E-02  7.5848194E+05
 2.7672226E-02  6.1617919E+05
 2.8678488E-02  3.9001172E+05
 2.9684750E-02  2.3549395E+05
 3.0691013E-02  1.5559386E+05
 3.1697277E-02  1.1359490E+05
 3.2703537E-02  8.9601016E+04
 3.3709802E-02  7.3131172E+04
 3.4716062E-02  6.0737668E+04
 3.5722326E-02  5.1484098E+04
 3.6728591E-02  4.4107660E+04
 3.7734851E-02  3.8588703E+04
 3.8741115E-02  3.3728160E+04
 3.9747376E-02  3.0176529E+04
 4.0753640E-02  2.7361182E+04
 4.1759904E-02  2.5148504E+04
 4.2766165E-02  2.4454639E+04
 4.3772429E-02  2.5968563E+04
 4.4778690E-02  3.1364695E+04
 4.5784954E-02  3.7555730E+04
 4.6791218E-02  3.7045578E+04
 4.7797479E-02  3.0051396E+04
 4.8803743E-02  2.2340773E+04
 4.9810003E-02  1.7593309E+04
 5.0816268E-02  1.5311146E+04
 5.1822532E-02  1.4714427E+04
 5.2828792E-02  1.4668238E+04
 5.3835057E-02  1.3708735E+04
 5.4841317E-02  1.1996425E+04
 5.5847581E-02  1.0213871E+04
 5.6853846E-02  8.9395000E+03
 5.7860106E-02  8.1034170E+03
 5.8866370E-02  7.4846792E+03
 5.9872631E-02  7.0075825E+03
 6.0878895E-02  6.4812617E+03
 6.1885159E-02  6.0237339E+03
 6.2891424E-02  5.6163394E+03
 6.3897684E-02  5.2775327E+03
 6.4903945E-02  5.0254663E+03
 6.5910205E-02  4.7510537E+03
 6.6916473E-02  4.5152896E+03
 6.7922734E-02  4.2912432E+03
 6.8928994E-02  4.1389512E+03
 6.9935262E-02  4.0114207E+03
 7.0941523E-02  3.8491069E+03
 7.1947783E-02  3.6853232E+03
 7.2954051E-02  3.4779116E+03
 7.3960312E-02  3.3155364E+03
 7.4966572E-02  3.1665840E+03
 7.5972833E-02  2.9860938E+03
 7.6979101E-02  2.8074717E+03
 7.7985361E-02  2.6252058E+03
 7.8991622E-02  2.4953591E+03
 7.9997890E-02  2.3980027E+03
 8.1004150E-02  2.3441638E+03
 8.2010411E-02  2.3376970E+03
 8.3016671E-02  2.3486433E+03
 8.4022939E-02  2.3544270E+03
 8.5029200E-02  2.3036448E+03
 8.6035460E-02  2.2240234E+03
 8.7041728E-02  2.1691406E+03
 8.8047989E-02  2.1297878E+03
 8.9054249E-02  2.0872983E+03
 9.0060517E-02  1.9878749E+03
 9.1066778E-02  1.8630374E+03
 9.2073038E-02  1.7399884E+03
 9.3079299E-02  1.6538274E+03
 9.4085567E-02  1.5887034E+03
 9.5091827E-02  1.5137229E+03
 9.6098088E-02  1.4401462E+03
 9.7104356E-02  1.3483805E+03
 9.8110616E-02  1.2520334E+03
 9.9116877E-02  1.1610587E+03
 1.0012314E-01  1.0831847E+03
 1.0112941E-01  1.0273563E+03
 1.0213567E-01  9.7663452E+02
 1.0314193E-01  9.3831042E+02
 1.0414819E-01  8.9762341E+02
 1.0515445E-01  8.5793298E+02
 1.0616072E-01  8.2732385E+02
 1.0716698E-01  8.0514978E+02
 1.0817324E-01  7.9418683E+02
 1.0917950E-01  7.8260181E+02
 1.1018577E-01  7.7087140E+02
 1.1119203E-01  7.4823608E+02
 1.1219829E-01  7.1759485E+02
 1.1320455E-01  6.9102069E+02
 1.1421082E-01  6.5966931E+02
 1.1521708E-01  6.3326306E+02
 1.1622334E-01  6.0955530E+02
 1.1722961E-01  5.8331061E+02
 1.1823587E-01  5.5710828E+02
 1.1924213E-01  5.3236304E+02
 1.2024839E-01  5.1273956E+02
 1.2125466E-01  4.9593329E+02
 1.2226092E-01  4.7773148E+02
 1.2326718E-01  4.6004697E+02
 1.2427345E-01  4.4540616E+02
 1.2527971E-01  4.3335382E+02
 1.2628597E-01  4.1850064E+02
 1.2729223E-01  4.0623169E+02
 1.2829849E-01  3.9752820E+02
 1.2930477E-01  3.8732184E+02
 1.3031103E-01  3.7985822E+02
 1.3131729E-01  3.7153387E+02
 1.3232355E-01  3.6529150E+02
 1.3332981E-01  3.5878809E+02
 1.3433607E-01  3.5025757E+02
 1.3534233E-01  3.4366177E+02
 1.3634861E-01  3.3476138E+02
 1.3735487E-01  3.2786478E+02
 1.3836113E-01  3.2064612E+02
 1.3936739E-01  3.1412863E+02
 1.4037365E-01  3.0676010E+02
 1.4137991E-01  2.9859283E+02
 1.4238618E-01  2.9114993E+02
 1.4339244E-01  2.8302209E+02
 1.4439870E-01  2.7641766E+02
 1.4540496E-01  2.6986221E+02
 1.4641123E-01  2.6386984E+02
 1.4741749E-01  2.5937167E+02
 1.4842375E-01  2.5443117E+02
 1.4943002E-01  2.5112180E+02
 1.5043628E-01  2.4750185E+02
 1.5144254E-01  2.4282005E+02
 1.5244880E-01  2.4010251E+02
 1.5345506E-01  2.3604059E+02
 1.5446132E-01  2.3285872E+02
 1.5546758E-01  2.2778333E+02
 1.5647386E-01  2.2263107E+02
 1.5748012E-01  2.1773892E+02
 1.5848638E-01  2.1134846E+02
 1.5949264E-01  2.0587730E+02
 1.6049890E-01  2.0022321E+02
 1.6150516E-01  1.9411160E+02
 1.6251142E-01  1.8912299E+02
 1.6351770E-01  1.8413333E+02
 1.6452396E-01  1.8079543E+02
 1.6553022E-01  1.7630771E+02
 1.6653648E-01  1.7180495E+02
 1.6754274E-01  1.6814607E+02
 1.6854900E-01  1.6452573E+02
 1.6955528E-01  1.6069421E+02
 1.7056154E-01  1.5771538E+02
 1.7156780E-01  1.5506247E+02
 1.7257406E-01  1.5186751E+02
 1.7358032E-01  1.4911380E+02
 1.7458658E-01  1.4633888E+02
 1.7559284E-01  1.4371048E+02
 1.7659912E-01  1.4133128E+02
 1.7760538E-01  1.3803296E+02
 1.7861164E-01  1.3549672E+02
 1.7961790E-01  1.3245815E+02
 1.8062416E-01  1.3027359E+02
 1.8163042E-01  1.2766518E+02
 1.8263668E-01  1.2482957E+02
 1.8364295E-01  1.2216830E+02
 1.8464921E-01  1.1984065E+02
 1.8565547E-01  1.1820193E+02
 1.8666174E-01  1.1580964E+02
 1.8766800E-01  1.1363773E+02
 1.8867426E-01  1.1185374E+02
 1.8968052E-01  1.0965927E+02
 1.9068679E-01  1.0753291E+02
 1.9169305E-01  1.0557182E+02
 1.9269931E-01  1.0380163E+02
 1.9370557E-01  1.0243174E+02
 1.9471183E-01  1.0089702E+02
 1.9571809E-01  9.8935913E+01
 1.9672437E-01  9.7620941E+01
 1.9773063E-01  9.5837730E+01
 1.9873689E-01  9.4247032E+01
 1.9974315E-01  9.2568520E+01
 2.0074941E-01  9.1176758E+01
 2.0175567E-01  8.9655243E+01
 2.0276193E-01  8.8183258E+01
 2.0376821E-01  8.6383804E+01
 2.0477447E-01  8.4688904E+01
 2.0578073E-01  8.3109596E+01
 2.0678699E-01  8.2115746E+01
 2.0779325E-01  8.0945709E+01
 2.0879951E-01  7.9472374E+01
 2.0980577E-01  7.8545052E+01
 2.1081205E-01  7.6892990E+01
 2.1181831E-01  7.5886742E+01
 2.1282457E-01  7.5002007E+01
 2.1383083E-01  7.3833298E+01
 2.1483709E-01  7.2880470E+01
 2.1584335E-01  7.1629578E+01
 2.1684961E-01  7.0326111E+01
 2.1785589E-01  6.9385757E+01
 2.1886215E-01  6.8502007E+01
 2.1986841E-01  6.7547485E+01
 2.2087467E-01  6.6470734E+01
 2.2188093E-01  6.5517685E+01
 2.2288719E-01  6.4641273E+01
 2.2389346E-01  6.3749966E+01
 2.2489972E-01  6.2762745E+01
 2.2590598E-01  6.1846745E+01
 2.2691225E-01  6.1105530E+01
 2.2791851E-01  5.9985184E+01
 2.2892477E-01  5.9026642E+01
 2.2993103E-01  5.8560646E+01
 2.3093730E-01  5.7819569E+01
 2.3194356E-01  5.6832649E+01
 2.3294982E-01  5.6101299E+01
 2.3395608E-01  5.5289497E+01
 2.3496234E-01  5.4600353E+01
 2.3596860E-01  5.3999935E+01
 2.3697487E-01  5.3198254E+01
 2.3798114E-01  5.2833660E+01
 2.3898740E-01  5.2138035E+01
 2.3999366E-01  5.1556690E+01
 2.4099992E-01  5.1052753E+01
 2.4200618E-01  5.0221565E+01
 2.4301244E-01  4.9827015E+01
 2.4401870E-01  4.9194008E+01
 2.4502498E-01  4.9025238E+01
 2.4603124E-01  4.8143948E+01
 2.4703750E-01  4.7431644E+01
 2.4804376E-01  4.6952229E+01
 2.4905002E-01  4.6560604E+01
 2.5005630E-01  4.6225208E+01
 2.5106254E-01  4.5779259E+01
 2.5206882E-01  4.5398598E+01
 2.5307506E-01  4.4799046E+01
 2.5408134E-01  4.4294415E+01
 2.5508761E-01  4.3540890E+01
 2.5609386E-01  4.3267677E+01
 2.5710014E-01  4.2930897E+01
 2.5810638E-01  4.2533253E+01
 2.5911266E-01  4.2025593E+01
 2.6011890E-01  4.1468433E+01
 2.6112518E-01  4.1397850E+01
 2.6213145E-01  4.0989948E+01
 2.6313770E-01  4.0507538E+01
 2.6414397E-01  4.0164818E+01
 2.6515022E-01  3.9557713E+01
 2.6615649E-01  3.9305649E+01
 2.6716274E-01  3.9076984E+01
 2.6816902E-01  3.8477604E+01
 2.6917529E-01  3.8399666E+01
 2.7018154E-01  3.7774540E+01
 2.7118781E-01  3.7276978E+01
 2.7219406E-01  3.6892918E+01
 2.7320033E-01  3.6634895E+01
 2.7420658E-01  3.6651508E+01
 2.7521285E-01  3.5994980E+01
 2.7621913E-01  3.5509720E+01
 2.7722538E-01  3.5041847E+01
 2.7823165E-01  3.5131828E+01
 2.7923790E-01  3.4697021E+01
 2.8024417E-01  3.4181393E+01
 2.8125042E-01  3.4011379E+01
 2.8225669E-01  3.3713257E+01
 2.8326297E-01  3.3430702E+01
 2.8426921E-01  3.3180054E+01
 2.8527549E-01  3.2772652E+01
 2.8628173E-01  3.2472332E+01
 2.8728801E-01  3.2082928E+01
 2.8829429E-01  3.1849134E+01
 2.8930053E-01  3.1431232E+01
 2.9030681E-01  3.1094131E+01
 2.9131305E-01  3.0700386E+01
 2.9231933E-01  3.0426388E+01
 2.9332557E-01  3.0168119E+01
 2.9433185E-01  2.9974724E+01
 2.9533812E-01  2.9635792E+01
 2.9634437E-01  2.9399282E+01
 2.9735065E-01  2.9112978E+01
 2.9835689E-01  2.8883011E+01
 2.9936317E-01  2.8798340E+01
 3.0036941E-01  2.8273146E+01
 3.0137569E-01  2.8103155E+01
 3.0238196E-01  2.8001736E+01
 3.0338821E-01  2.7608833E+01
 3.0439448E-01  2.7450937E+01
 3.0540073E-01  2.7214293E+01
 3.0640700E-01  2.7084259E+01
 3.0741325E-01  2.6861189E+01
 3.0841953E-01  2.6700893E+01
 3.0942580E-01  2.6544746E+01
 3.1043205E-01  2.6352179E+01
 3.1143832E-01  2.6051138E+01
 3.1244457E-01  2.5955214E+01
 3.1345084E-01  2.5759396E+01
 3.1445709E-01  2.5565300E+01
 3.1546336E-01  2.5295450E+01
 3.1646964E-01  2.5072271E+01
 3.1747589E-01  2.5088720E+01
 3.1848216E-01  2.5149393E+01
 3.1948841E-01  2.4801241E+01
 3.2049468E-01  2.4460274E+01
 3.2150093E-01  2.4192856E+01
 3.2250720E-01  2.4100130E+01
 3.2351348E-01  2.4002684E+01
 3.2451972E-01  2.3754881E+01
 3.2552600E-01  2.3689356E+01
 3.2653224E-01  2.3466711E+01
 3.2753852E-01  2.3461393E+01
 3.2854477E-01  2.3186428E+01
 3.2955104E-01  2.3094835E+01
 3.3055732E-01  2.2987902E+01
 3.3156356E-01  2.2855854E+01
 3.3256984E-01  2.2722092E+01
 3.3357608E-01  2.2698927E+01
 3.3458236E-01  2.2605955E+01
 3.3558863E-01  2.2230770E+01
 3.3659488E-01  2.2122200E+01
 3.3760116E-01  2.1975979E+01
 3.3860740E-01  2.2019630E+01
 3.3961368E-01  2.1806952E+01
 3.4061992E-01  2.1575233E+01
 3.4162620E-01  2.1611834E+01
 3.4263247E-01  2.1412603E+01
 3.4363872E-01  2.1136230E+01
 3.4464499E-01  2.1123985E+01
 3.4565124E-01  2.0783360E+01
 3.4665751E-01  2.0683304E+01
 3.4766376E-01  2.0546467E+01
 3.4867004E-01  2.0328108E+01
 3.4967631E-01  2.0223419E+01
 3.5068256E-01  2.0190140E+01
 3.5168883E-01  2.0049221E+01
 3.5269508E-01  1.9998522E+01
 3.5370135E-01  1.9679482E+01
 3.5470760E-01  1.9645706E+01
 3.5571387E-01  1.9327343E+01
 3.5672015E-01  1.9243803E+01
 3.5772640E-01  1.9201876E+01
 3.5873267E-01  1.9060249E+01
 3.5973892E-01  1.8873079E+01
 3.6074519E-01  1.8796652E+01
 3.6175144E-01  1.8797125E+01
 3.6275771E-01  1.8619135E+01
 3.6376399E-01  1.8369419E+01
 3.6477023E-01  1.8240036E+01
 3.6577651E-01  1.8065462E+01
 3.6678275E-01  1.7953321E+01
 3.6778903E-01  1.7847132E+01
 3.6879528E-01  1.7624020E+01
 3.6980155E-01  1.7569099E+01
 3.7080783E-01  1.7502605E+01
 3.7181407E-01  1.7441252E+01
 3.7282035E-01  1.7299892E+01
 3.7382659E-01  1.7198240E+01
 3.7483287E-01  1.7097694E+01
 3.7583911E-01  1.6867306E+01
 3.7684539E-01  1.6691605E+01
 3.7785167E-01  1.6604412E+01
 3.7885791E-01  1.6551756E+01
 3.7986419E-01  1.6473938E+01
 3.8087043E-01  1.6319717E+01
 3.8187671E-01  1.6180351E+01
 3.8288295E-01  1.6120924E+01
 3.8388923E-01  1.6012877E+01
 3.8489550E-01  1.5918576E+01
 3.8590175E-01  1.5788256E+01
 3.8690802E-01  1.5703289E+01
 3.8791427E-01  1.5521991E+01
 3.8892055E-01  1.5521014E+01
 3.8992682E-01  1.5392012E+01
 3.9093307E-01  1.5296161E+01
 3.9193934E-01  1.5226208E+01
 3.9294559E-01  1.5067030E+01
 3.9395186E-01  1.4967458E+01
 3.9495811E-01  1.4944309E+01
 3.9596438E-01  1.4760973E+01
 3.9697066E-01  1.4547034E+01
 3.9797691E-01  1.4460274E+01
 3.9898318E-01  1.4397110E+01
 3.9998943E-01  1.4292171E+01
 4.0099570E-01  1.4192863E+01
 4.0200195E-01  1.4134805E+01
 4.0300822E-01  1.4133472E+01
 4.0401450E-01  1.4027614E+01
 4.0502074E-01  1.3949378E+01
 4.0602702E-01  1.3892877E+01
 4.0703326E-01  1.3824739E+01
 4.0803954E-01  1.3742375E+01
 4.0904579E-01  1.3600973E+01
 4.1005206E-01  1.3646570E+01
 4.1105834E-01  1.3425674E+01
 4.1206458E-01  1.3258834E+01
 4.1307086E-01  1.3267986E+01
 4.1407710E-01  1.3110451E+01
 4.1508338E-01  1.3023527E+01
 4.1608962E-01  1.3042434E+01
 4.1709590E-01  1.2944762E+01
 4.1810217E-01  1.2829334E+01
 4.1910842E-01  1.2836515E+01
 4.2011470E-01  1.2655849E+01
 4.2112094E-01  1.2716609E+01
 4.2212722E-01  1.2629574E+01
 4.2313346E-01  1.2391689E+01
 4.2413974E-01  1.2344941E+01
 4.2514601E-01  1.2302682E+01
 4.2615226E-01  1.2053144E+01
 4.2715853E-01  1.2037136E+01
 4.2816478E-01  1.1918785E+01
 4.2917106E-01  1.1901621E+01
 4.3017730E-01  1.1860862E+01
 4.3118358E-01  1.1878884E+01
 4.3218985E-01  1.1693563E+01
 4.3319610E-01  1.1580667E+01
 4.3420237E-01  1.1641518E+01
 4.3520862E-01  1.1572098E+01
 4.3621489E-01  1.1519444E+01
 4.3722114E-01  1.1432581E+01
 4.3822742E-01  1.1304718E+01
 4.3923369E-01  1.1241615E+01
 4.4023994E-01  1.1319340E+01
 4.4124621E-01  1.1173715E+01
 4.4225246E-01  1.1011995E+01
 4.4325873E-01  1.1018982E+01
 4.4426501E-01  1.0997941E+01
 4.4527125E-01  1.0931468E+01
 4.4627753E-01  1.0933216E+01
 4.4728377E-01  1.0923766E+01
 4.4829005E-01  1.0822985E+01
 4.4929630E-01  1.0761858E+01
 4.5030257E-01  1.0648550E+01
 4.5130885E-01  1.0541883E+01
 4.5231509E-01  1.0555557E+01
 4.5332137E-01  1.0588951E+01
 4.5432761E-01  1.0501143E+01
 4.5533389E-01  1.0323073E+01
 4.5634013E-01  1.0296898E+01
 4.5734641E-01  1.0235550E+01
 4.5835268E-01  1.0269277E+01
 4.5935893E-01  1.0166888E+01
 4.6036521E-01  1.0090841E+01
 4.6137145E-01  1.0138493E+01
 4.6237773E-01  1.0126534E+01
 4.6338397E-01  1.0100441E+01
 4.6439025E-01  1.0049276E+01
 4.6539652E-01  9.9344959E+00
 4.6640277E-01  9.9160633E+00
 4.6740904E-01  9.9037819E+00
 4.6841529E-01  9.7473040E+00
 4.6942157E-01  9.7733727E+00
 4.7042781E-01  9.6010017E+00
 4.7143409E-01  9.6594305E+00
 4.7244036E-01  9.6199532E+00
 4.7344661E-01  9.5691156E+00
 4.7445288E-01  9.5562677E+00
 4.7545913E-01  9.5791807E+00
 4.7646540E-01  9.4905977E+00
 4.7747165E-01  9.5058260E+00
 4.7847793E-01  9.4177656E+00
 4.7948420E-01  9.4122887E+00
 4.8049045E-01  9.4604778E+00
 4.8149672E-01  9.3836718E+00
 4.8250297E-01  9.3439369E+00
 4.8350924E-01  9.2585201E+00
 4.8451549E-01  9.1693830E+00
 4.8552176E-01  9.2821054E+00
 4.8652804E-01  9.1480885E+00
 4.8753428E-01  9.1848831E+00
 4.8854056E-01  9.2051535E+00
 4.8954681E-01  9.0651007E+00
 4.9055308E-01  9.0579729E+00
 4.9155936E-01  9.0025101E+00
 4.9256560E-01  8.9200172E+00
 4.9357188E-01  9.0422173E+00
 4.9457812E-01  8.9341288E+00
 4.9558440E-01  8.9009256E+00
 4.9659064E-01  8.8994322E+00
 4.9759692E-01  8.9093390E+00
 4.9860319E-01  8.8520517E+00
 4.9960944E-01  8.8076134E+00
 5.0061572E-01  8.7869358E+00
 5.0162196E-01  8.8010864E+00
 5.0262821E-01  8.7398329E+00
 5.0363451E-01  8.5170431E+00
 5.0464076E-01  8.4484968E+00
 5.0564700E-01  8.3896532E+00
 5.0665331E-01  8.4162722E+00
 5.0765955E-01  8.3212833E+00
 5.0866580E-01  8.3092136E+00
 5.0967205E-01  8.2206564E+00
 5.1067835E-01  8.1201649E+00
 5.1168460E-01  8.1476593E+00
 5.1269084E-01  8.1735020E+00
 5.1369715E-01  8.0726519E+00
 5.1470339E-01  8.0845509E+00
 5.1570964E-01  8.0373926E+00
 5.1671588E-01  7.9459476E+00
 5.1772219E-01  7.9090686E+00
 5.1872844E-01  7.9412074E+00
 5.1973468E-01  7.9542994E+00
 5.2074099E-01  7.7888541E+00
 5.2174723E-01  7.7145662E+00
 5.2275348E-01  7.6949067E+00
 5.2375972E-01  7.7086535E+00
 5.2476603E-01  7.6937575E+00
 5.2577227E-01  7.6877503E+00
 5.2677852E-01  7.6725354E+00
 5.2778482E-01  7.6004744E+00
 5.2879107E-01  7.4565592E+00
 5.2979732E-01  7.4091091E+00
 5.3080356E-01  7.3945642E+00
 5.3180987E-01  7.3976507E+00
 5.3281611E-01  7.2675328E+00
 5.3382236E-01  7.2215848E+00
 5.3482866E-01  7.2641358E+00
 5.3583491E-01  7.1425357E+00
 5.3684115E-01  7.1385231E+00
 5.3784740E-01  7.1733465E+00
 5.3885370E-01  7.0323839E+00
 5.3985995E-01  6.9896107E+00
 5.4086620E-01  7.0015454E+00
 5.4187250E-01  6.9698372E+00
 5.4287875E-01  6.9329462E+00
 5.4388499E-01  6.8712149E+00
 5.4489124E-01  6.8908525E+00
 5.4589754E-01  6.7863975E+00
 5.4690379E-01  6.7314377E+00
 5.4791003E-01  6.8437748E+00
 5.4891634E-01  6.8371158E+00
 5.4992259E-01  6.7229681E+00
 5.5092883E-01  6.7313495E+00
 5.5193508E-01  6.6068611E+00
 5.5294138E-01  6.6145129E+00
 5.5394763E-01  6.4886231E+00
 5.5495387E-01  6.5016828E+00
 5.5596018E-01  6.4814444E+00
 5.5696642E-01  6.4308167E+00
 5.5797267E-01  6.3702641E+00
 5.5897892E-01  6.3800683E+00
 5.5998522E-01  6.3919196E+00
 5.6099147E-01  6.3444095E+00
 5.6199771E-01  6.2948165E+00
 5.6300402E-01  6.2291436E+00
 5.6401026E-01  6.1685762E+00
 5.6501651E-01  6.2187023E+00
 5.6602275E-01  6.2159038E+00
 5.6702906E-01  6.2048120E+00
 5.6803530E-01  6.1274776E+00
 5.6904155E-01  6.1183662E+00
 5.7004786E-01  6.1494641E+00
 5.7105410E-01  6.1513138E+00
 5.7206035E-01  6.1496763E+00
 5.7306665E-01  6.1281075E+00
 5.7407290E-01  6.1650257E+00
 5.7507914E-01  6.2009587E+00
 5.7608539E-01  6.1254997E+00
 5.7709169E-01  6.0892859E+00
 5.7809794E-01  6.0848594E+00
 5.7910419E-01  6.0051384E+00
 5.8011049E-01  5.9952579E+00
 5.8111674E-01  5.9747787E+00
 5.8212298E-01  5.8516445E+00
 5.8312923E-01  5.8566899E+00
 5.8413553E-01  5.9122882E+00
 5.8514178E-01  5.8507404E+00
 5.8614802E-01  5.8907504E+00
 5.8715433E-01  5.7946172E+00
 5.8816057E-01  5.8908396E+00
 5.8916682E-01  5.7716842E+00
 5.9017307E-01  5.6494498E+00
 5.9117937E-01  5.6765075E+00
 5.9218562E-01  5.7400665E+00
 5.9319186E-01  5.7002740E+00
 5.9419817E-01  5.7088866E+00
 5.9520441E-01  5.6292396E+00
 5.9621066E-01  5.5476069E+00
 5.9721690E-01  5.5654359E+00
 5.9822321E-01  5.5214796E+00
 5.9922945E-01  5.6249890E+00
 6.0023570E-01  5.6397510E+00
 6.0124201E-01  5.5252695E+00
 6.0224825E-01  5.4962735E+00
 6.0325450E-01  5.5135942E+00
 6.0426074E-01  5.4538078E+00
 6.0526705E-01  5.3678012E+00
 6.0627329E-01  5.4013491E+00
 6.0727954E-01  5.3909402E+00
 6.0828584E-01  5.4122224E+00
 6.0929209E-01  5.4857993E+00
 6.1029834E-01  5.4656830E+00
 6.1130458E-01  5.3449717E+00
 6.1231089E-01  5.2214975E+00
 6.1331713E-01  5.2242417E+00
 6.1432338E-01  5.2210650E+00
 6.1532968E-01  5.2231946E+00
 6.1633593E-01  5.1837788E+00
 6.1734217E-01  5.0974841E+00
 6.1834842E-01  5.0747895E+00
 6.1935472E-01  5.0871143E+00
 6.2036097E-01  4.9768052E+00
 6.2136722E-01  5.0827203E+00
 6.2237352E-01  5.0019364E+00
 6.2337977E-01  5.0428729E+00
 6.2438601E-01  5.0925517E+00
 6.2539226E-01  4.9979391E+00
 6.2639856E-01  5.0070438E+00
 6.2740481E-01  4.9870214E+00
 6.2841105E-01  4.8838596E+00
 6.2941736E-01  4.9511590E+00
 6.3042361E-01  4.9734502E+00
 6.3142985E-01  4.8037996E+00
 6.3243610E-01  4.9090047E+00
 6.3344240E-01  4.8465085E+00
 6.3444865E-01  4.7972240E+00
 6.3545489E-01  4.8672719E+00
 6.3646120E-01  4.9330807E+00
 6.3746744E-01  4.7458510E+00
 6.3847369E-01  4.7060785E+00
 6.3947994E-01  4.7270284E+00
 6.4048624E-01  4.6729941E+00
 6.4149249E-01  4.7068467E+00
 6.4249873E-01  4.6596565E+00
 6.4350504E-01  4.8870502E+00
 6.4451128E-01  4.8617029E+00
 6.4551753E-01  4.7909827E+00
 6.4652377E-01  4.6039462E+00
 6.4753008E-01  4.7885804E+00
 6.4853632E-01  4.6973019E+00
 6.4954257E-01  4.5823655E+00
 6.5054888E-01  4.5676379E+00
 6.5155512E-01  4.6661053E+00
 6.5256137E-01  4.5314417E+00
 6.5356761E-01  4.5804653E+00
 6.5457392E-01  4.7242484E+00
 6.5558016E-01  4.6721888E+00
 6.5658641E-01  4.5143137E+00
 6.5759271E-01  4.4764991E+00
 6.5859896E-01  4.4785399E+00
 6.5960521E-01  4.5289230E+00
 6.6061145E-01  4.5540690E+00
 6.6161776E-01  4.5928016E+00
 6.6262400E-01  4.6379638E+00
 6.6363025E-01  4.5073857E+00
 6.6463655E-01  4.3868084E+00
 6.6564280E-01  4.6298447E+00
 6.6664904E-01  4.4815335E+00
 6.6765529E-01  4.5111175E+00
 6.6866159E-01  4.4764886E+00
 6.6966784E-01  4.4293861E+00
 6.7067409E-01  4.4646368E+00
 6.7168039E-01  4.3403854E+00
 6.7268664E-01  4.3204126E+00
 6.7369288E-01  4.3527517E+00
 6.7469919E-01  4.3309226E+00
 6.7570543E-01  4.4178357E+00
 6.7671168E-01  4.3562212E+00
 6.7771792E-01  4.3887539E+00
 6.7872423E-01  4.2649131E+00
 6.7973047E-01  4.3761091E+00
 6.8073672E-01  4.3674865E+00
 6.8174303E-01  4.3749776E+00
 6.8274927E-01  4.2031503E+00
 6.8375552E-01  4.1706042E+00
 6.8476176E-01  4.0795207E+00
 6.8576807E-01  4.1664701E+00
 6.8677431E-01  4.3033128E+00
 6.8778056E-01  4.3803554E+00
 6.8878686E-01  4.3296432E+00
 6.8979311E-01  4.0558343E+00
 6.9079936E-01  4.0954261E+00
 6.9180560E-01  4.1528873E+00
 6.9281191E-01  4.1007185E+00
 6.9381815E-01  4.0518856E+00
 6.9482440E-01  4.0700769E+00
 6.9583070E-01  4.0845990E+00
 6.9683695E-01  4.0058341E+00
 6.9784319E-01  4.0341125E+00
 6.9884944E-01  4.0500493E+00
 6.9985574E-01  4.1369419E+00
 7.0086199E-01  3.9367983E+00
 7.0186824E-01  3.7094486E+00
 7.0287454E-01  4.0796866E+00
 7.0388079E-01  4.0218253E+00
 7.0488703E-01  3.9350727E+00
 7.0589328E-01  3.8775969E+00
 7.0689958E-01  3.9112520E+00
 7.0790583E-01  3.9133499E+00
 7.0891207E-01  3.9452350E+00
 7.0991838E-01  3.9243348E+00
 7.1092463E-01  3.9653089E+00
 7.1193087E-01  3.8915722E+00
 7.1293712E-01  3.7195539E+00
 7.1394342E-01  3.8186865E+00
 7.1494967E-01  3.8908305E+00
 7.1595591E-01  3.6547170E+00
 7.1696222E-01  3.6121883E+00
 7.1796846E-01  3.7711372E+00
 7.1897471E-01  3.8589613E+00
 7.1998096E-01  3.8402257E+00
 7.2098726E-01  3.8577507E+00
 7.2199351E-01  3.9119935E+00
 7.2299975E-01  3.8773401E+00
 7.2400606E-01  3.6993814E+00
 7.2501230E-01  3.6412859E+00
 7.2601855E-01  3.5192847E+00
 7.2702479E-01  3.5169280E+00
 7.2803110E-01  3.6285615E+00
 7.2903734E-01  3.7758067E+00
 7.3004359E-01  3.5499396E+00
 7.3104990E-01  3.6836095E+00
 7.3205614E-01  3.5699160E+00
 7.3306239E-01  3.5082061E+00
 7.3406863E-01  3.6637244E+00
 7.3507494E-01  3.5892746E+00
 7.3608118E-01  3.8148124E+00
 7.3708743E-01  3.5943668E+00
 7.3809373E-01  3.5087326E+00
 7.3909998E-01  3.6197703E+00
 7.4010623E-01  3.2906232E+00
 7.4111247E-01  3.2439003E+00
 7.4211878E-01  3.5381427E+00
 7.4312502E-01  3.4506338E+00
 7.4413127E-01  3.3098664E+00
 7.4513757E-01  3.4368584E+00
 7.4614382E-01  3.4155326E+00
 7.4715006E-01  3.3081007E+00
 7.4815631E-01  3.3306239E+00
 7.4916261E-01  3.1986408E+00
 7.5016886E-01  3.1762321E+00
 7.5117511E-01  3.4038641E+00
 7.5218141E-01  3.5383227E+00
 7.5318766E-01  3.2650702E+00
 7.5419390E-01  3.2181647E+00
 7.5520015E-01  3.0966911E+00
 7.5620645E-01  3.3729911E+00
 7.5721270E-01  3.2020051E+00
 7.5821894E-01  2.9773228E+00
 7.5922525E-01  2.9293196E+00
 7.6023149E-01  3.0452566E+00
 7.6123774E-01  3.4700956E+00
 7.6224399E-01  3.1153116E+00
 7.6325029E-01  3.2075720E+00
 7.6425654E-01  3.3130236E+00
 7.6526278E-01  3.1889205E+00
 7.6626909E-01  2.9431350E+00
 7.6727533E-01  3.2217100E+00
 7.6828158E-01  3.2364933E+00
 7.6928782E-01  3.4739738E+00
 7.7029413E-01  2.9128175E+00
 7.7130038E-01  3.2360198E+00
 7.7230662E-01  3.1815772E+00
 7.7331293E-01  3.6574044E+00
 7.7431917E-01  3.4011955E+00
 7.7532542E-01  3.0709333E+00
 7.7633172E-01  3.0424719E+00
 7.7733797E-01  2.5103104E+00
 7.7834421E-01  2.1424451E+00
 7.7935046E-01  2.9698176E+00
 7.8035676E-01  4.0782866E+00
 7.8136301E-01  4.6423168E+00
